 TITLE="solution of GS equation with flow, magnetic postprocessing"
 Variables =" R [m] ","q", "shear", "L_ratio"
 ZONE I=          88,F=Point
   0.28191329202507920E+00      0.13446413774619034E+02      0.16845058511626487E+02      0.47223916346315820E+01
   0.30230865922645489E+00      0.11291039804456004E+02      0.14438022732121601E+02      0.43036805413159023E+01
   0.32160023234090435E+00      0.97442425662399383E+01      0.11800399894860828E+02      0.39713826922960922E+01
   0.34002080298467319E+00      0.85750768063295446E+01      0.10118566683723769E+02      0.37047665958996259E+01
   0.35763192716331926E+00      0.76586205407647823E+01      0.87301318003353199E+01      0.34849027235285952E+01
   0.37460772239108209E+00      0.69198695675256632E+01      0.76566224613359628E+01      0.32998468907972915E+01
   0.39104712258927288E+00      0.63126418192062248E+01      0.67486066707209122E+01      0.31413327452109363E+01
   0.40701892804446888E+00      0.58044978562259262E+01      0.60093869465573180E+01      0.30033850100800401E+01
   0.42255324007541695E+00      0.53727436937059707E+01      0.53791519410292805E+01      0.28821879479440500E+01
   0.43775337659223074E+00      0.50002707977285956E+01      0.48658414498967311E+01      0.27736921867218718E+01
   0.45262796111625792E+00      0.46755934879061085E+01      0.43844970696163843E+01      0.26757725362846387E+01
   0.46725909147699340E+00      0.43898500419884652E+01      0.40243799231526447E+01      0.25867877624033495E+01
   0.48162616373459116E+00      0.41355501887852144E+01      0.36651677521952259E+01      0.25048410999041448E+01
   0.49582088007391539E+00      0.39078559355229419E+01      0.33854661188848518E+01      0.24286030101385347E+01
   0.50982148534354310E+00      0.37019362187332847E+01      0.31273693955096360E+01      0.23575983264914977E+01
   0.52369700321190915E+00      0.35140984400115194E+01      0.28911292344724995E+01      0.22905878391252394E+01
   0.53744332760841507E+00      0.33427373580401460E+01      0.26947301246381494E+01      0.22272035229739906E+01
   0.55108433513886834E+00      0.31847411310597802E+01      0.25045749112062947E+01      0.21666619221148089E+01
   0.56465055467232472E+00      0.30385965975760603E+01      0.23496583259254935E+01      0.21087161102625367E+01
   0.57815114903558451E+00      0.29021683220942665E+01      0.22084205733605518E+01      0.20525410481796769E+01
   0.59161143372589153E+00      0.27750165155809094E+01      0.20633938299383798E+01      0.19984862703729200E+01
   0.60504709015522851E+00      0.26556434231435513E+01      0.19367835570367462E+01      0.19463007245988764E+01
   0.61847504136470444E+00      0.25438328540493265E+01      0.18291128474338503E+01      0.18955508647614199E+01
   0.63191367620610028E+00      0.24378897719685169E+01      0.17163374901190569E+01      0.18461235074875098E+01
   0.64538124929926322E+00      0.23383260281744578E+01      0.15907297209774425E+01      0.17977165038470511E+01
   0.65889994778150607E+00      0.22446646786162052E+01      0.15099102490461493E+01      0.17507764391260514E+01
   0.67248219144949706E+00      0.21541319146736848E+01      0.14259898383404386E+01      0.17054298466167863E+01
   0.68616511997140384E+00      0.20692620392027070E+01      0.13108009956701185E+01      0.16606709907301400E+01
   0.69996212653062273E+00      0.19891980594166487E+01      0.12240038666289021E+01      0.16169090797135146E+01
   0.71388949660057888E+00      0.19120804122970227E+01      0.11328021774540222E+01      0.15749453586215900E+01
   0.72800980123808878E+00      0.18400007277631347E+01      0.10358247758917658E+01      0.15337090012217243E+01
   0.74232511443617044E+00      0.17710496930450932E+01      0.95860085250837224E+00      0.14939518687617321E+01
   0.75692736826643736E+00      0.17053207965198502E+01      0.86275513417875660E+00      0.14554879679634081E+01
   0.77181358514975562E+00      0.16441092689589116E+01      0.76970862653111771E+00      0.14181592951789170E+01
   0.78712302067313800E+00      0.15858579497320457E+01      0.67999617843445903E+00      0.13828093919603595E+01
   0.80288592776152945E+00      0.15320276685736540E+01      0.57986383341395997E+00      0.13494597896209339E+01
   0.81926024424093691E+00      0.14826332412257430E+01      0.47597334636705202E+00      0.13189434167113026E+01
   0.83644428100511281E+00      0.14389804370810850E+01      0.37416923409828373E+00      0.12917907115008946E+01
   0.85467469397676687E+00      0.14002358443277565E+01      0.26995666788286976E+00      0.12697874588806770E+01
   0.87436413845565408E+00      0.13707629277007074E+01      0.15210202235859410E+00      0.12539994561585510E+01
   0.89622658694263868E+00      0.13535860680018865E+01      0.53636570808063777E-01      0.12472290792058383E+01
   0.92165390868973973E+00      0.13484001327596344E+01      0.42118217473030147E-02      0.12510240758462479E+01
   0.95418497169345029E+00      0.13517830896610747E+01     -0.18190528591130666E-01      0.12645205472133931E+01
   0.98010640586449005E+00      0.13639602094431733E+01     -0.26514810955568398E-01      0.12766562083700834E+01
   0.10768734996432827E+01      0.13639602094431733E+01     -0.26514810955568398E-01      0.12766562083700834E+01
   0.10998246186126130E+01      0.13517830896610747E+01     -0.18190528591130666E-01      0.12645205472133931E+01
   0.11273993664158390E+01      0.13484001327596344E+01      0.42118217473030147E-02      0.12510240758462479E+01
   0.11479368759174380E+01      0.13535860680018865E+01      0.53636570808063777E-01      0.12472290792058383E+01
   0.11650529397913378E+01      0.13707629277007074E+01      0.15210202235859410E+00      0.12539994561585510E+01
   0.11798583777308591E+01      0.14002358443277565E+01      0.26995666788286976E+00      0.12697874588806770E+01
   0.11933074565411836E+01      0.14389804370810850E+01      0.37416923409828373E+00      0.12917907115008946E+01
   0.12055566539279625E+01      0.14826332412257430E+01      0.47597334636705202E+00      0.13189434167113026E+01
   0.12169770232942736E+01      0.15320276685736540E+01      0.57986383341395997E+00      0.13494597896209339E+01
   0.12277297300280188E+01      0.15858579497320457E+01      0.67999617843445903E+00      0.13828093919603595E+01
   0.12379369871178709E+01      0.16441092689589116E+01      0.76970862653111771E+00      0.14181592951789170E+01
   0.12476671027059065E+01      0.17053207965198502E+01      0.86275513417875660E+00      0.14554879679634081E+01
   0.12570013538461198E+01      0.17710496930450932E+01      0.95860085250837224E+00      0.14939518687617321E+01
   0.12659799744359908E+01      0.18400007277631347E+01      0.10358247758917658E+01      0.15337090012217243E+01
   0.12746594776482858E+01      0.19120804122970227E+01      0.11328021774540222E+01      0.15749453586215900E+01
   0.12830679700128571E+01      0.19891980594166487E+01      0.12240038666289021E+01      0.16169090797135146E+01
   0.12912102097049254E+01      0.20692620392027070E+01      0.13108009956701185E+01      0.16606709907301400E+01
   0.12991042417062804E+01      0.21541319146736848E+01      0.14259898383404386E+01      0.17054298466167863E+01
   0.13068007006808500E+01      0.22446646786162052E+01      0.15099102490461493E+01      0.17507764391260514E+01
   0.13143208668849082E+01      0.23383260281744578E+01      0.15907297209774425E+01      0.17977165038470511E+01
   0.13216804042514105E+01      0.24378897719685169E+01      0.17163374901190569E+01      0.18461235074875098E+01
   0.13288184787319230E+01      0.25438328540493265E+01      0.18291128474338503E+01      0.18955508647614199E+01
   0.13358144416939322E+01      0.26556434231435513E+01      0.19367835570367462E+01      0.19463007245988764E+01
   0.13426853438705180E+01      0.27750165155809094E+01      0.20633938299383798E+01      0.19984862703729200E+01
   0.13493958031687412E+01      0.29021683220942665E+01      0.22084205733605518E+01      0.20525410481796769E+01
   0.13559516320098544E+01      0.30385965975760603E+01      0.23496583259254935E+01      0.21087161102625367E+01
   0.13624058061814674E+01      0.31847411310597802E+01      0.25045749112062947E+01      0.21666619221148089E+01
   0.13687207886907131E+01      0.33427373580401460E+01      0.26947301246381494E+01      0.22272035229739906E+01
   0.13748985080317198E+01      0.35140984400115194E+01      0.28911292344724995E+01      0.22905878391252394E+01
   0.13809955651439141E+01      0.37019362187332847E+01      0.31273693955096360E+01      0.23575983264914977E+01
   0.13869305120192983E+01      0.39078559355229419E+01      0.33854661188848518E+01      0.24286030101385347E+01
   0.13927775238302511E+01      0.41355501887852144E+01      0.36651677521952259E+01      0.25048410999041448E+01
   0.13985242356705274E+01      0.43898500419884652E+01      0.40243799231526447E+01      0.25867877624033495E+01
   0.14041314703135026E+01      0.46755934879061085E+01      0.43844970696163843E+01      0.26757725362846387E+01
   0.14096984530987404E+01      0.50002707977285956E+01      0.48658414498967311E+01      0.27736921867218718E+01
   0.14150867475223829E+01      0.53727436937059707E+01      0.53791519410292805E+01      0.28821879479440500E+01
   0.14204442570962732E+01      0.58044978562259262E+01      0.60093869465573180E+01      0.30033850100800401E+01
   0.14256525043363724E+01      0.63126418192062248E+01      0.67486066707209122E+01      0.31413327452109363E+01
   0.14308156367054721E+01      0.69198695675256632E+01      0.76566224613359628E+01      0.32998468907972915E+01
   0.14358560991306915E+01      0.76586205407647823E+01      0.87301318003353199E+01      0.34849027235285952E+01
   0.14408426579630105E+01      0.85750768063295446E+01      0.10118566683723769E+02      0.37047665958996259E+01
   0.14457175018074566E+01      0.97442425662399383E+01      0.11800399894860828E+02      0.39713826922960922E+01
   0.14505447760277448E+01      0.11291039804456004E+02      0.14438022732121601E+02      0.43036805413159023E+01
   0.14552631800735960E+01      0.13446413774619034E+02      0.16845058511626487E+02      0.47223916346315820E+01
