 TITLE="poloidal viscosity for solution of GS equation with flow"
 Variables ="theta", "r", "R [m] ","z [m]", "viscosity"
 ZONE I=         100,J=          44,F=Point
 0.899353865E-03   0.499555453E-01   0.107686892E+01   0.226296149E-01  -0.656120538E-02
 0.473767679E-02   0.499364725E-01   0.107684930E+01   0.228212161E-01  -0.659372111E-02
 0.116391775E-01   0.499037580E-01   0.107681376E+01   0.231654232E-01  -0.665207164E-02
 0.215986473E-01   0.498601259E-01   0.107676188E+01   0.236614611E-01  -0.673600333E-02
 0.346065430E-01   0.498095043E-01   0.107669308E+01   0.243081122E-01  -0.684510319E-02
 0.506501997E-01   0.497570598E-01   0.107660665E+01   0.251038060E-01  -0.693843107E-02
 0.697139564E-01   0.497113460E-01   0.107650399E+01   0.260475072E-01  -0.687697480E-02
 0.917791922E-01   0.496809894E-01   0.107638529E+01   0.271379890E-01  -0.701624307E-02
 0.116824351E+00   0.496711275E-01   0.107624597E+01   0.283741946E-01  -0.694997132E-02
 0.144824962E+00   0.497142171E-01   0.107610714E+01   0.297595897E-01  -0.624014152E-02
 0.175753667E+00   0.497745626E-01   0.107592121E+01   0.312876582E-01  -0.909560051E-02
 0.209580248E+00   0.498701333E-01   0.107569229E+01   0.329601567E-01  -0.873823188E-02
 0.246271653E+00   0.500427487E-01   0.107544627E+01   0.347845959E-01  -0.883035122E-02
 0.285792031E+00   0.503054378E-01   0.107517837E+01   0.367666992E-01  -0.885418451E-02
 0.328102769E+00   0.506759434E-01   0.107488607E+01   0.389148421E-01  -0.913138744E-02
 0.373162524E+00   0.512015460E-01   0.107459119E+01   0.412508962E-01  -0.847633193E-02
 0.420927270E+00   0.518765384E-01   0.107426144E+01   0.437822624E-01  -0.768858059E-02
 0.471350337E+00   0.524971072E-01   0.107368600E+01   0.464231061E-01  -0.192393223E-01
 0.524382457E+00   0.531001771E-01   0.107287874E+01   0.491707295E-01  -0.196262122E-01
 0.579971813E+00   0.539410185E-01   0.107203391E+01   0.521443411E-01  -0.200261790E-01
 0.638064089E+00   0.550071655E-01   0.107109789E+01   0.553492709E-01  -0.202252582E-01
 0.698602525E+00   0.563727162E-01   0.107008032E+01   0.588407041E-01  -0.208289292E-01
 0.761527970E+00   0.581273980E-01   0.106898503E+01   0.626941712E-01  -0.212325792E-01
 0.826778940E+00   0.603067571E-01   0.106775612E+01   0.669555632E-01  -0.241385113E-01
 0.894291679E+00   0.623585778E-01   0.106595450E+01   0.712096281E-01  -0.403692328E-01
 0.964000221E+00   0.642691307E-01   0.106356215E+01   0.753804682E-01  -0.431533243E-01
 0.103583646E+01   0.667376752E-01   0.106093670E+01   0.799984014E-01  -0.441256023E-01
 0.110973019E+01   0.699126711E-01   0.105801760E+01   0.851970479E-01  -0.454434391E-01
 0.118560923E+01   0.732417118E-01   0.105443259E+01   0.904599112E-01  -0.693063674E-01
 0.126339943E+01   0.757754548E-01   0.104984149E+01   0.948080999E-01  -0.761298632E-01
 0.134302479E+01   0.784650574E-01   0.104463218E+01   0.990229840E-01  -0.985787557E-01
 0.142440750E+01   0.806844981E-01   0.103868097E+01   0.102406414E+00  -0.953356369E-01
 0.150746804E+01   0.819011984E-01   0.103209657E+01   0.104321727E+00  -0.116209077E+00
 0.159212526E+01   0.824020450E-01   0.102515779E+01   0.104968003E+00  -0.118398267E+00
 0.167829644E+01   0.813274804E-01   0.101818610E+01   0.103442540E+00  -0.116864171E+00
 0.176589739E+01   0.787577875E-01   0.101164515E+01   0.998483632E-01  -0.100600974E+00
 0.185484251E+01   0.759255960E-01   0.100563580E+01   0.954679085E-01  -0.823482657E-01
 0.194504489E+01   0.724303649E-01   0.100043452E+01   0.900015027E-01  -0.698088923E-01
 0.203641640E+01   0.681885749E-01   0.996298691E+00   0.835143075E-01  -0.475636599E-01
 0.212886777E+01   0.640656226E-01   0.992987413E+00   0.769301604E-01  -0.456577636E-01
 0.222230865E+01   0.608541771E-01   0.990012151E+00   0.709740320E-01  -0.429057129E-01
 0.231664774E+01   0.579390992E-01   0.987596101E+00   0.651415616E-01  -0.246757195E-01
 0.241179288E+01   0.547964573E-01   0.986073259E+00   0.591187003E-01  -0.209292274E-01
 0.250765110E+01   0.523938859E-01   0.984699752E+00   0.536189804E-01  -0.197834393E-01
 0.260412873E+01   0.506374282E-01   0.983415350E+00   0.485089896E-01  -0.196441192E-01
 0.270113151E+01   0.491980500E-01   0.982411057E+00   0.435606396E-01  -0.801205824E-02
 0.279856465E+01   0.478369214E-01   0.981863416E+00   0.386741657E-01  -0.865364828E-02
 0.289633297E+01   0.469569141E-01   0.981361695E+00   0.339862296E-01  -0.838816904E-02
 0.299434092E+01   0.465617831E-01   0.980855495E+00   0.294162326E-01  -0.818687620E-02
 0.309249275E+01   0.466112819E-01   0.980358288E+00   0.248725292E-01  -0.778820354E-02
 0.319069256E+01   0.468008686E-01   0.980168928E+00   0.202875748E-01   0.165745365E-02
 0.328884439E+01   0.471322342E-01   0.980291219E+00   0.156694537E-01   0.207904375E-02
 0.338685234E+01   0.479476974E-01   0.980400547E+00   0.109426543E-01   0.227526046E-02
 0.348462065E+01   0.492437262E-01   0.980538570E+00   0.602207325E-02   0.221302328E-02
 0.358205380E+01   0.511220597E-01   0.980670664E+00   0.788496602E-03   0.463219582E-02
 0.367905658E+01   0.529348518E-01   0.981441871E+00  -0.451581503E-02   0.130524402E-01
 0.377553421E+01   0.552982292E-01   0.982359678E+00  -0.101698195E-01   0.146741604E-01
 0.387139242E+01   0.584178231E-01   0.983374195E+00  -0.163636885E-01   0.155817259E-01
 0.396653756E+01   0.623975814E-01   0.984569941E+00  -0.232463565E-01   0.279316652E-01
 0.406087666E+01   0.663176141E-01   0.986699350E+00  -0.301490830E-01   0.305358735E-01
 0.415431754E+01   0.709666775E-01   0.989332991E+00  -0.376147761E-01   0.404694170E-01
 0.424676890E+01   0.764940136E-01   0.992568588E+00  -0.457655879E-01   0.556609767E-01
 0.433814041E+01   0.816997733E-01   0.997045946E+00  -0.534599212E-01   0.694010401E-01
 0.442834280E+01   0.867149881E-01   0.100261224E+01  -0.606555765E-01   0.835892027E-01
 0.451728792E+01   0.920741609E-01   0.100906320E+01  -0.677426002E-01   0.115633962E+00
 0.460488886E+01   0.951720120E-01   0.101670350E+01  -0.720380532E-01   0.129249945E+00
 0.469106005E+01   0.965845244E-01   0.102485516E+01  -0.739778362E-01   0.139418740E+00
 0.477571727E+01   0.961825468E-01   0.103300043E+01  -0.734050352E-01   0.138240226E+00
 0.485877781E+01   0.944367451E-01   0.104068842E+01  -0.708419736E-01   0.118631783E+00
 0.494016052E+01   0.918308341E-01   0.104764701E+01  -0.668749203E-01   0.875292693E-01
 0.501978587E+01   0.871349632E-01   0.105327815E+01  -0.604658642E-01   0.810491224E-01
 0.509757607E+01   0.830121281E-01   0.105810388E+01  -0.543449795E-01   0.607148128E-01
 0.517345511E+01   0.790082885E-01   0.106206388E+01  -0.481736894E-01   0.576088950E-01
 0.524734885E+01   0.753664970E-01   0.106533580E+01  -0.422522352E-01   0.396100199E-01
 0.531918509E+01   0.714023074E-01   0.106763000E+01  -0.360706882E-01   0.298268849E-01
 0.538889363E+01   0.680879171E-01   0.106954131E+01  -0.305079026E-01   0.293126770E-01
 0.545640637E+01   0.654326674E-01   0.107122732E+01  -0.255578820E-01   0.284961400E-01
 0.552165734E+01   0.630984525E-01   0.107258260E+01  -0.209553161E-01   0.140118338E-01
 0.558458278E+01   0.607124465E-01   0.107340340E+01  -0.164624121E-01   0.148826083E-01
 0.564512122E+01   0.588245984E-01   0.107416428E+01  -0.124536312E-01   0.142973502E-01
 0.570321349E+01   0.572856973E-01   0.107483166E+01  -0.880782693E-02   0.141917864E-01
 0.575880285E+01   0.560837171E-01   0.107546136E+01  -0.549519466E-02   0.136716895E-01
 0.581183497E+01   0.551357711E-01   0.107603694E+01  -0.245188675E-02   0.123025624E-01
 0.586225804E+01   0.542057689E-01   0.107638752E+01   0.435783562E-03   0.380893003E-02
 0.591002278E+01   0.532170869E-01   0.107646806E+01   0.318380316E-02   0.141128042E-02
 0.595508254E+01   0.524104812E-01   0.107652807E+01   0.569561033E-02   0.157915939E-02
 0.599739328E+01   0.517443490E-01   0.107655891E+01   0.799702429E-02   0.937460659E-03
 0.603691365E+01   0.512386515E-01   0.107660609E+01   0.100932457E-01   0.151007717E-02
 0.607360506E+01   0.508483630E-01   0.107664913E+01   0.120057665E-01   0.143603785E-02
 0.610743164E+01   0.505534990E-01   0.107668813E+01   0.137454292E-01   0.141237285E-02
 0.613836035E+01   0.503365290E-01   0.107672297E+01   0.153201954E-01   0.139391875E-02
 0.616636096E+01   0.501826632E-01   0.107675401E+01   0.167354974E-01   0.137914922E-02
 0.619140611E+01   0.500787966E-01   0.107678142E+01   0.179949724E-01   0.136796572E-02
 0.621347135E+01   0.500134383E-01   0.107680535E+01   0.191008742E-01   0.135805039E-02
 0.623253511E+01   0.499765289E-01   0.107682583E+01   0.200544682E-01   0.134863395E-02
 0.624857876E+01   0.499594654E-01   0.107684295E+01   0.208560983E-01   0.134031834E-02
 0.626158666E+01   0.499549861E-01   0.107685673E+01   0.215059229E-01   0.133332290E-02
 0.627154613E+01   0.499572185E-01   0.107686723E+01   0.220033972E-01   0.132781688E-02
 0.627844763E+01   0.499616458E-01   0.107687448E+01   0.223480944E-01   0.132392613E-02
 0.628228595E+01   0.499651285E-01   0.107687850E+01   0.225397891E-01   0.132173585E-02
 0.899353865E-03   0.729059773E-01   0.109981934E+01   0.226502392E-01  -0.714419197E-02
 0.473767679E-02   0.728842564E-01   0.109979682E+01   0.229298654E-01  -0.714038196E-02
 0.116391775E-01   0.728479360E-01   0.109975638E+01   0.234323606E-01  -0.713326486E-02
 0.215986473E-01   0.728017185E-01   0.109969812E+01   0.241568553E-01  -0.712238697E-02
 0.346065430E-01   0.727523783E-01   0.109962222E+01   0.251019493E-01  -0.710709200E-02
 0.506501997E-01   0.727087140E-01   0.109952887E+01   0.262658369E-01  -0.709040759E-02
 0.697139564E-01   0.726812559E-01   0.109941810E+01   0.276475252E-01  -0.708457599E-02
 0.917791922E-01   0.726824621E-01   0.109928996E+01   0.292460653E-01  -0.707927189E-02
 0.116824351E+00   0.727267642E-01   0.109914445E+01   0.310616127E-01  -0.707609509E-02
 0.144824962E+00   0.728304941E-01   0.109898145E+01   0.330955151E-01  -0.707864768E-02
 0.175753667E+00   0.730121431E-01   0.109880080E+01   0.353508702E-01  -0.708666087E-02
 0.209580248E+00   0.732919068E-01   0.109860157E+01   0.378330018E-01  -0.712847763E-02
 0.246271653E+00   0.736928959E-01   0.109838285E+01   0.405502565E-01  -0.714050602E-02
 0.285792031E+00   0.742415002E-01   0.109814354E+01   0.435147349E-01  -0.752327741E-02
 0.328102769E+00   0.748413010E-01   0.109776246E+01   0.467016822E-01  -0.163846839E-01
 0.373162524E+00   0.754370731E-01   0.109715883E+01   0.500862015E-01  -0.155084988E-01
 0.420927270E+00   0.762617615E-01   0.109651833E+01   0.537457060E-01  -0.161578219E-01
 0.471350337E+00   0.773711572E-01   0.109584769E+01   0.577181537E-01  -0.166109968E-01
 0.524382457E+00   0.786770046E-01   0.109501881E+01   0.619766733E-01  -0.189560279E-01
 0.579971813E+00   0.803179527E-01   0.109409719E+01   0.665995752E-01  -0.188896655E-01
 0.638064089E+00   0.819212081E-01   0.109271635E+01   0.713807400E-01  -0.298145591E-01
 0.698602525E+00   0.838840892E-01   0.109114686E+01   0.765346661E-01  -0.307065180E-01
 0.761527970E+00   0.863580480E-01   0.108941778E+01   0.821742129E-01  -0.312973107E-01
 0.826778940E+00   0.895148262E-01   0.108753683E+01   0.884458814E-01  -0.309555190E-01
 0.894291679E+00   0.927156918E-01   0.108496026E+01   0.948810435E-01  -0.530862073E-01
 0.964000221E+00   0.961331866E-01   0.108173244E+01   0.101556035E+00  -0.531835371E-01
 0.103583646E+01   0.100498829E+00   0.107814846E+01   0.109042697E+00  -0.526864343E-01
 0.110973019E+01   0.105064548E+00   0.107365652E+01   0.116678463E+00  -0.812157824E-01
 0.118560923E+01   0.109778132E+00   0.106816038E+01   0.124319345E+00  -0.833789292E-01
 0.126339943E+01   0.114844265E+00   0.106166242E+01   0.132045667E+00  -0.102043266E+00
 0.134302479E+01   0.119704271E+00   0.105394443E+01   0.139197044E+00  -0.139268837E+00
 0.142440750E+01   0.123722211E+00   0.104496265E+01   0.144983234E+00  -0.159091882E+00
 0.150746804E+01   0.126556903E+00   0.103492261E+01   0.148887919E+00  -0.175205940E+00
 0.159212526E+01   0.127722786E+00   0.102419181E+01   0.150278464E+00  -0.187705829E+00
 0.167829644E+01   0.126732085E+00   0.101331716E+01   0.148585394E+00  -0.180087626E+00
 0.176589739E+01   0.123770118E+00   0.100291787E+01   0.144006571E+00  -0.162622885E+00
 0.185484251E+01   0.119462486E+00   0.993434919E+00   0.137260245E+00  -0.138456877E+00
 0.194504489E+01   0.113615989E+00   0.985378668E+00   0.128336551E+00  -0.105005626E+00
 0.203641640E+01   0.107664766E+00   0.978574058E+00   0.118787628E+00  -0.966955575E-01
 0.212886777E+01   0.101508206E+00   0.973159934E+00   0.108692029E+00  -0.674337538E-01
 0.222230865E+01   0.959034101E-01   0.968758310E+00   0.988437536E-01  -0.628228627E-01
 0.231664774E+01   0.909465984E-01   0.965197304E+00   0.893858991E-01  -0.440869454E-01
 0.241179288E+01   0.862531685E-01   0.962628347E+00   0.800915443E-01  -0.371400475E-01
 0.250765110E+01   0.826856196E-01   0.960293780E+00   0.715615977E-01  -0.363310835E-01
 0.260412873E+01   0.796497692E-01   0.958493469E+00   0.633621196E-01  -0.220313305E-01
 0.270113151E+01   0.770175537E-01   0.957246775E+00   0.554216553E-01  -0.199303892E-01
 0.279856465E+01   0.751795163E-01   0.956113771E+00   0.478705382E-01  -0.201397898E-01
 0.289633297E+01   0.737294209E-01   0.955390362E+00   0.404867859E-01  -0.851306671E-02
 0.299434092E+01   0.728000526E-01   0.954901170E+00   0.332659031E-01  -0.832907632E-02
 0.309249275E+01   0.725758872E-01   0.954424972E+00   0.261468633E-01  -0.788796628E-02
 0.319069256E+01   0.727549031E-01   0.954246170E+00   0.190137589E-01   0.171585748E-02
 0.328884439E+01   0.733412584E-01   0.954365818E+00   0.118240976E-01   0.213162432E-02
 0.338685234E+01   0.746503234E-01   0.954496988E+00   0.445912005E-02   0.179952246E-02
 0.348462065E+01   0.764825557E-01   0.954886639E+00  -0.313938370E-02   0.129895998E-01
 0.358205380E+01   0.787721418E-01   0.955659652E+00  -0.110003252E-01   0.134813983E-01
 0.367905658E+01   0.819577399E-01   0.956511005E+00  -0.193744636E-01   0.123970687E-01
 0.377553421E+01   0.856999685E-01   0.957864999E+00  -0.281774790E-01   0.274901441E-01
 0.387139242E+01   0.900571132E-01   0.959793178E+00  -0.374582337E-01   0.313433493E-01
 0.396653756E+01   0.954252072E-01   0.962157860E+00  -0.475058345E-01   0.464483575E-01
 0.406087666E+01   0.101330602E+00   0.965467620E+00  -0.579900980E-01   0.514463025E-01
 0.415431754E+01   0.108490487E+00   0.969461555E+00  -0.694449719E-01   0.753393440E-01
 0.424676890E+01   0.115527554E+00   0.975044383E+00  -0.806442154E-01   0.837695036E-01
 0.433814041E+01   0.123346716E+00   0.981820991E+00  -0.922241924E-01   0.117432149E+00
 0.442834280E+01   0.130247038E+00   0.990412649E+00  -0.102443246E+00   0.145349895E+00
 0.451728792E+01   0.136583872E+00   0.100043360E+01  -0.111407765E+00   0.175974419E+00
 0.460488886E+01   0.140336609E+00   0.101185539E+01  -0.116941745E+00   0.200657103E+00
 0.469106005E+01   0.141682952E+00   0.102389441E+01  -0.119066060E+00   0.208084535E+00
 0.477571727E+01   0.140642218E+00   0.103581393E+01  -0.117775598E+00   0.193677614E+00
 0.485877781E+01   0.137414832E+00   0.104695939E+01  -0.113360029E+00   0.168367915E+00
 0.494016052E+01   0.132126892E+00   0.105674697E+01  -0.106130025E+00   0.129200797E+00
 0.501978587E+01   0.126261780E+00   0.106511858E+01  -0.977580840E-01   0.116760819E+00
 0.509757607E+01   0.120257783E+00   0.107209697E+01  -0.888621139E-01   0.847848326E-01
 0.517345511E+01   0.114051210E+00   0.107765420E+01  -0.795575154E-01   0.647554372E-01
 0.524734885E+01   0.108536769E+00   0.108224620E+01  -0.707882708E-01   0.658442519E-01
 0.531918509E+01   0.103553789E+00   0.108596381E+01  -0.624826168E-01   0.431975924E-01
 0.538889363E+01   0.987272414E-01   0.108872377E+01  -0.543993471E-01   0.398731820E-01
 0.545640637E+01   0.949288510E-01   0.109120428E+01  -0.472591360E-01   0.383306616E-01
 0.552165734E+01   0.913388462E-01   0.109302277E+01  -0.404417084E-01   0.256729808E-01
 0.558458278E+01   0.882531032E-01   0.109449239E+01  -0.341751791E-01   0.256667180E-01
 0.564512122E+01   0.857708253E-01   0.109580875E+01  -0.285040397E-01   0.216189346E-01
 0.570321349E+01   0.836392217E-01   0.109687600E+01  -0.232492462E-01   0.186835507E-01
 0.575880285E+01   0.815384769E-01   0.109749597E+01  -0.182396676E-01   0.105512803E-01
 0.581183497E+01   0.797902286E-01   0.109800297E+01  -0.136472242E-01   0.100784523E-01
 0.586225804E+01   0.783734490E-01   0.109844566E+01  -0.943920305E-02   0.105318517E-01
 0.591002278E+01   0.772799679E-01   0.109887490E+01  -0.558864054E-02   0.101166265E-01
 0.595508254E+01   0.764411853E-01   0.109927696E+01  -0.204796286E-02   0.106978165E-01
 0.599739328E+01   0.756584409E-01   0.109950302E+01   0.125527200E-02   0.284563238E-02
 0.603691365E+01   0.748995963E-01   0.109955315E+01   0.432500478E-02   0.120512671E-02
 0.607360506E+01   0.743090463E-01   0.109959645E+01   0.712477894E-02   0.129143749E-02
 0.610743164E+01   0.738588168E-01   0.109963443E+01   0.967050234E-02   0.127232326E-02
 0.613836035E+01   0.735250368E-01   0.109966872E+01   0.119736565E-01   0.125852725E-02
 0.616636096E+01   0.732854285E-01   0.109969931E+01   0.140426788E-01   0.124927176E-02
 0.619140611E+01   0.731207372E-01   0.109972639E+01   0.158831741E-01   0.124246607E-02
 0.621347135E+01   0.730140324E-01   0.109975007E+01   0.174987015E-01   0.123720482E-02
 0.623253511E+01   0.729505779E-01   0.109977042E+01   0.188913272E-01   0.123327931E-02
 0.624857876E+01   0.729177510E-01   0.109978749E+01   0.200617375E-01   0.123086455E-02
 0.626158666E+01   0.729048918E-01   0.109980129E+01   0.210103200E-01   0.122895727E-02
 0.627154613E+01   0.729033718E-01   0.109981183E+01   0.217363961E-01   0.122735663E-02
 0.627844763E+01   0.729065538E-01   0.109981913E+01   0.222394329E-01   0.122617629E-02
 0.628228595E+01   0.729098239E-01   0.109982319E+01   0.225191640E-01   0.122549472E-02
 0.899353865E-03   0.100480726E+00   0.112739408E+01   0.226750269E-01  -0.658813453E-02
 0.473767679E-02   0.100459252E+00   0.112737151E+01   0.230604568E-01  -0.658670794E-02
 0.116391775E-01   0.100424376E+00   0.112733096E+01   0.237532445E-01  -0.658390045E-02
 0.215986473E-01   0.100382508E+00   0.112727248E+01   0.247524655E-01  -0.657929717E-02
 0.346065430E-01   0.100342879E+00   0.112719620E+01   0.260565845E-01  -0.657229816E-02
 0.506501997E-01   0.100317484E+00   0.112710223E+01   0.276636253E-01  -0.656366556E-02
 0.697139564E-01   0.100320971E+00   0.112699068E+01   0.295728500E-01  -0.655771298E-02
 0.917791922E-01   0.100370627E+00   0.112686159E+01   0.317836918E-01  -0.655700666E-02
 0.116824351E+00   0.100486386E+00   0.112671486E+01   0.342972169E-01  -0.655038640E-02
 0.144824962E+00   0.100691804E+00   0.112655108E+01   0.371164726E-01  -0.654761407E-02
 0.175753667E+00   0.101008228E+00   0.112636565E+01   0.402458015E-01  -0.664863065E-02
 0.209580248E+00   0.101491180E+00   0.112618369E+01   0.437003412E-01  -0.681003320E-02
 0.246271653E+00   0.101959450E+00   0.112579658E+01   0.474412196E-01  -0.141986159E-01
 0.285792031E+00   0.102532547E+00   0.112528708E+01   0.514904110E-01  -0.147284712E-01
 0.328102769E+00   0.103289256E+00   0.112469272E+01   0.558694231E-01  -0.164487503E-01
 0.373162524E+00   0.104294151E+00   0.112402994E+01   0.606064017E-01  -0.165946163E-01
 0.420927270E+00   0.105630511E+00   0.112332318E+01   0.657466452E-01  -0.151738895E-01
 0.471350337E+00   0.107041639E+00   0.112228277E+01   0.711912247E-01  -0.262973844E-01
 0.524382457E+00   0.108744003E+00   0.112104592E+01   0.770303810E-01  -0.258054582E-01
 0.579971813E+00   0.110922238E+00   0.111969748E+01   0.833700297E-01  -0.261730358E-01
