 TITLE="solution of GS equation with flow, magnetic postprocessing"
 Variables =" R [m] ","q", "shear", "L_ratio"
 ZONE I=          88,F=Point
   0.11153237859841894E+01      0.61993827420209566E+01      0.13512163795003829E+02      0.79701013346990601E+01
   0.11303899424277299E+01      0.48942593424010283E+01      0.10711984036950675E+02      0.65386976416839158E+01
   0.11451925689551015E+01      0.41245131570779714E+01      0.77147048555471258E+01      0.56631758575433100E+01
   0.11597911047291141E+01      0.35971216629806846E+01      0.63798045439504332E+01      0.50470865624750161E+01
   0.11741385271866260E+01      0.32039500848724178E+01      0.54172710521289460E+01      0.45774254893858348E+01
   0.11882835195874146E+01      0.28954665640886006E+01      0.47366171265965722E+01      0.42015006769822625E+01
   0.12022012882102020E+01      0.26451605265152880E+01      0.42150031465909823E+01      0.38905088103392798E+01
   0.12159215753933996E+01      0.24362221735536171E+01      0.38142838513320636E+01      0.36268090849753665E+01
   0.12294524631161134E+01      0.22580681488632832E+01      0.34783786343510541E+01      0.33986528005806518E+01
   0.12427841582219816E+01      0.21045582135329353E+01      0.31953172068398663E+01      0.31988829850156213E+01
   0.12559523443857501E+01      0.19699358087754755E+01      0.29600545823593154E+01      0.30217273078103735E+01
   0.12689561962757911E+01      0.18509898639899354E+01      0.27478154900276848E+01      0.28631357417601726E+01
   0.12817980247712784E+01      0.17449711614518693E+01      0.25621009830461365E+01      0.27200407354573271E+01
   0.12945071589157109E+01      0.16497638506202930E+01      0.23932132615952857E+01      0.25902030304770061E+01
   0.13070891545791130E+01      0.15638600210169868E+01      0.22400160087009993E+01      0.24718051847585465E+01
   0.13195460349664716E+01      0.14858537276022041E+01      0.20972216034952758E+01      0.23634026865854949E+01
   0.13319058290010106E+01      0.14145998173815841E+01      0.19988206531833934E+01      0.22632573279362274E+01
   0.13441808217559992E+01      0.13479776763523554E+01      0.18599886847456975E+01      0.21684438357932860E+01
   0.13563846846281504E+01      0.12890825822360179E+01      0.16833653475613812E+01      0.20848594243972545E+01
   0.13685266001876186E+01      0.12354303529252950E+01      0.15649776935416824E+01      0.20083822643176754E+01
   0.13806322363794823E+01      0.11860675484819203E+01      0.14545083069199436E+01      0.19374898891993912E+01
   0.13927188679898745E+01      0.11404899164660840E+01      0.13454318561493392E+01      0.18717768037742051E+01
   0.14048043200854627E+01      0.10984747877155729E+01      0.12546728380338716E+01      0.18103839693013624E+01
   0.14169080326704149E+01      0.10588293963057465E+01      0.11800674099631629E+01      0.17525997848195058E+01
   0.14290478729604212E+01      0.10216221667643708E+01      0.10982351769454997E+01      0.16979354176868915E+01
   0.14412401203179939E+01      0.98662794910243456E+00      0.10343354468738841E+01      0.16458723787643137E+01
   0.14535027244696026E+01      0.95303464269558702E+00      0.97019970314500892E+00      0.15962746016652571E+01
   0.14658627426120163E+01      0.92138135436598700E+00      0.90675831388517503E+00      0.15484380282279251E+01
   0.14783451992196484E+01      0.89080215219552272E+00      0.85696671990130446E+00      0.15023988360927338E+01
   0.14909643317866925E+01      0.86136399106295602E+00      0.80496389663445478E+00      0.14577096327304349E+01
   0.15037454390512883E+01      0.83281029398605844E+00      0.75847883775414182E+00      0.14139782310290301E+01
   0.15167538250011920E+01      0.80498536738744098E+00      0.71301686849047829E+00      0.13710611179051932E+01
   0.15299901381543302E+01      0.77776831266427204E+00      0.66745115746935579E+00      0.13287612337524555E+01
   0.15435007774332004E+01      0.75106644928398125E+00      0.62152762909056702E+00      0.12868646929056744E+01
   0.15573859221678510E+01      0.72477398964885653E+00      0.58222034649914323E+00      0.12452611070546937E+01
   0.15716498689121214E+01      0.69844691710244156E+00      0.53850095144577270E+00      0.12037455388701759E+01
   0.15864730914843836E+01      0.67264833960754611E+00      0.48651357451439881E+00      0.11623405529805659E+01
   0.16018859306523554E+01      0.64697857823089544E+00      0.43024944027316858E+00      0.11210175145134236E+01
   0.16182185089250372E+01      0.62199691836770465E+00      0.37214624585560824E+00      0.10798075559262317E+01
   0.16356886132519748E+01      0.59684497965519900E+00      0.31706826400085086E+00      0.10386553032761499E+01
   0.16548500296031088E+01      0.57162889132492034E+00      0.24563254263823914E+00      0.99754566393438349E+00
   0.16767739442225484E+01      0.54757922788818769E+00      0.16666008969316337E+00      0.95661531183420268E+00
   0.17042783087021214E+01      0.52340839530869321E+00      0.90739340689093256E-01      0.91528023875402997E+00
   0.17259337279245182E+01      0.50924802075289755E+00      0.43600608706158277E-01      0.88903674203492333E+00
   0.18077226324903417E+01      0.50924802075289755E+00      0.43600608706158277E-01      0.88903674203492333E+00
   0.18284817550382193E+01      0.52340839530869321E+00      0.90739340689093256E-01      0.91528023875402997E+00
   0.18543938181397541E+01      0.54757922788818769E+00      0.16666008969316337E+00      0.95661531183420268E+00
   0.18747567733075592E+01      0.57162889132492034E+00      0.24563254263823914E+00      0.99754566393438349E+00
   0.18922238437503398E+01      0.59684497965519900E+00      0.31706826400085086E+00      0.10386553032761499E+01
   0.19079635760842002E+01      0.62199691836770465E+00      0.37214624585560824E+00      0.10798075559262317E+01
   0.19224120735041315E+01      0.64697857823089544E+00      0.43024944027316858E+00      0.11210175145134236E+01
   0.19359943971016915E+01      0.67264833960754611E+00      0.48651357451439881E+00      0.11623405529805659E+01
   0.19487781633847361E+01      0.69844691710244156E+00      0.53850095144577270E+00      0.12037455388701759E+01
   0.19610147778905738E+01      0.72477398964885653E+00      0.58222034649914323E+00      0.12452611070546937E+01
   0.19727849309719208E+01      0.75106644928398125E+00      0.62152762909056702E+00      0.12868646929056744E+01
   0.19841586283373951E+01      0.77776831266427204E+00      0.66745115746935579E+00      0.13287612337524555E+01
   0.19951711181713025E+01      0.80498536738744098E+00      0.71301686849047829E+00      0.13710611179051932E+01
   0.20058810255860058E+01      0.83281029398605844E+00      0.75847883775414182E+00      0.14139782310290301E+01
   0.20163393066616950E+01      0.86136399106295602E+00      0.80496389663445478E+00      0.14577096327304349E+01
   0.20265772597969769E+01      0.89080215219552272E+00      0.85696671990130446E+00      0.15023988360927338E+01
   0.20366216846478502E+01      0.92138135436598700E+00      0.90675831388517503E+00      0.15484380282279251E+01
   0.20464967139749950E+01      0.95303464269558702E+00      0.97019970314500892E+00      0.15962746016652571E+01
   0.20562230905678995E+01      0.98662794910243456E+00      0.10343354468738841E+01      0.16458723787643137E+01
   0.20658198894497901E+01      0.10216221667643708E+01      0.10982351769454997E+01      0.16979354176868915E+01
   0.20753022160247259E+01      0.10588293963057465E+01      0.11800674099631629E+01      0.17525997848195058E+01
   0.20846890210790430E+01      0.10984747877155729E+01      0.12546728380338716E+01      0.18103839693013624E+01
   0.20939901081347863E+01      0.11404899164660840E+01      0.13454318561493392E+01      0.18717768037742051E+01
   0.21032196996337271E+01      0.11860675484819203E+01      0.14545083069199436E+01      0.19374898891993912E+01
   0.21123893683179626E+01      0.12354303529252950E+01      0.15649776935416824E+01      0.20083822643176754E+01
   0.21215105230495555E+01      0.12890825822360179E+01      0.16833653475613812E+01      0.20848594243972545E+01
   0.21305956496117298E+01      0.13479776763523554E+01      0.18599886847456975E+01      0.21684438357932860E+01
   0.21396560552909514E+01      0.14145998173815841E+01      0.19988206531833934E+01      0.22632573279362274E+01
   0.21487173574103071E+01      0.14858537276022041E+01      0.20972216034952758E+01      0.23634026865854949E+01
   0.21577936736254553E+01      0.15638600210169868E+01      0.22400160087009993E+01      0.24718051847585465E+01
   0.21668927088364671E+01      0.16497638506202930E+01      0.23932132615952857E+01      0.25902030304770061E+01
   0.21760216455001258E+01      0.17449711614518693E+01      0.25621009830461365E+01      0.27200407354573271E+01
   0.21851853118076554E+01      0.18509898639899354E+01      0.27478154900276848E+01      0.28631357417601726E+01
   0.21943912789374904E+01      0.19699358087754755E+01      0.29600545823593154E+01      0.30217273078103735E+01
   0.22036444717319603E+01      0.21045582135329353E+01      0.31953172068398663E+01      0.31988829850156213E+01
   0.22129524310950210E+01      0.22580681488632832E+01      0.34783786343510541E+01      0.33986528005806518E+01
   0.22223187774696349E+01      0.24362221735536171E+01      0.38142838513320636E+01      0.36268090849753665E+01
   0.22317497380983062E+01      0.26451605265152880E+01      0.42150031465909823E+01      0.38905088103392798E+01
   0.22412489746144515E+01      0.28954665640886006E+01      0.47366171265965722E+01      0.42015006769822625E+01
   0.22508236146668432E+01      0.32039500848724178E+01      0.54172710521289460E+01      0.45774254893858348E+01
   0.22604778625285449E+01      0.35971216629806846E+01      0.63798045439504332E+01      0.50470865624750161E+01
   0.22702141091815364E+01      0.41245131570779714E+01      0.77147048555471258E+01      0.56631758575433100E+01
   0.22800380223762482E+01      0.48942593424010283E+01      0.10711984036950675E+02      0.65386976416839158E+01
   0.22899535863616598E+01      0.61993827420209566E+01      0.13512163795003829E+02      0.79701013346990601E+01
