 TITLE="solution of GS equation with flow, magnetic postprocessing"
 Variables =" R [m] ","q", "shear", "L_ratio"
 ZONE I=          88,F=Point
   0.11220079484453667E+01      0.41494429263158814E+01      0.10002287208077973E+02      0.65690951030212474E+01
   0.11428878562391502E+01      0.35676349059751198E+01      0.81858433546243869E+01      0.56360551146727689E+01
   0.11628513037133437E+01      0.31645476364367613E+01      0.64784081339411488E+01      0.50049030243590469E+01
   0.11819885773469103E+01      0.28557148846642177E+01      0.56043168712350599E+01      0.45290594051054187E+01
   0.12003722679487263E+01      0.26059401969775045E+01      0.49504456055169364E+01      0.41482718056210857E+01
   0.12180701448137810E+01      0.23973664602742639E+01      0.44646381520399672E+01      0.38319691452746212E+01
   0.12351358222743942E+01      0.22188748150405067E+01      0.40852287721039584E+01      0.35623445103506377E+01
   0.12516524212883120E+01      0.20635016354218267E+01      0.37650094780550258E+01      0.33280002681399892E+01
   0.12676760122650099E+01      0.19269969000520366E+01      0.34930926016412034E+01      0.31218970334513800E+01
   0.12831927998496715E+01      0.18053793221362135E+01      0.32582929578791169E+01      0.29381671187957421E+01
   0.12983186621099596E+01      0.16965975310177555E+01      0.30458804616623958E+01      0.27733650066357658E+01
   0.13130228348477022E+01      0.15984676121222392E+01      0.28591524714967176E+01      0.26243504571385374E+01
   0.13273990874698476E+01      0.15095316597985227E+01      0.26884812350467056E+01      0.24887737649921973E+01
   0.13414159910979326E+01      0.14284746816070735E+01      0.25314920878315177E+01      0.23649004659719592E+01
   0.13551573022699179E+01      0.13543751283669361E+01      0.23846120577364487E+01      0.22511597690905796E+01
   0.13686123893743987E+01      0.12863774466518478E+01      0.22450651879485837E+01      0.21464666603949856E+01
   0.13818203807177627E+01      0.12239538932834686E+01      0.21144251346945961E+01      0.20498256065400025E+01
   0.13948156958962561E+01      0.11663180178480013E+01      0.19938492287309431E+01      0.19602478397146648E+01
   0.14075971275272283E+01      0.11130632470296971E+01      0.18762994610902648E+01      0.18771932554782205E+01
   0.14201977632889815E+01      0.10637558441527162E+01      0.17667205688435055E+01      0.17999627602502530E+01
   0.14326521060703190E+01      0.10178947626154993E+01      0.16592584650386792E+01      0.17280372563666324E+01
   0.14449707846574551E+01      0.97536362569759627E+00      0.15535033449237496E+01      0.16609291934141597E+01
   0.14571649655625307E+01      0.93577399419841345E+00      0.14615270317164497E+01      0.15983185312152266E+01
   0.14692718444281461E+01      0.89818004779534422E+00      0.14382573537754304E+01      0.15384046881632303E+01
   0.14813124370544108E+01      0.86100094366754543E+00      0.13300471408869898E+01      0.14783121807165049E+01
   0.14933085704132225E+01      0.82900734009078114E+00      0.11540260880171318E+01      0.14273461196799053E+01
   0.15052840503009275E+01      0.79959010834459554E+00      0.10678749890688011E+01      0.13804395057764278E+01
   0.15172690345154998E+01      0.77211448445633057E+00      0.97001621015823125E+00      0.13365140710670778E+01
   0.15292920806105335E+01      0.74682219373917180E+00      0.88838519013215711E+00      0.12953693255625214E+01
   0.15413845325132278E+01      0.72279736751382484E+00      0.80360865248102431E+00      0.12571897431331189E+01
   0.15535869556566251E+01      0.70097546285860424E+00      0.71698372841580760E+00      0.12214931314644595E+01
   0.15659562331124344E+01      0.68029935283391896E+00      0.64632858022727391E+00      0.11884983651414101E+01
   0.15785269642676278E+01      0.66133985501885784E+00      0.55245242322302157E+00      0.11579875179816754E+01
   0.15913528855674197E+01      0.64428457791343896E+00      0.48633885639414154E+00      0.11296810114350400E+01
   0.16045554471752064E+01      0.62766889058079078E+00      0.43541632666935698E+00      0.11030905633879249E+01
   0.16181818177787410E+01      0.61224898630670177E+00      0.35917928052926162E+00      0.10781404885703152E+01
   0.16323411782894732E+01      0.59827563863901001E+00      0.31558939203749165E+00      0.10546268112777406E+01
   0.16472563320300297E+01      0.58381590090197522E+00      0.27001650799463534E+00      0.10324566662215087E+01
   0.16630798449632347E+01      0.57118247247914267E+00      0.20538949665039660E+00      0.10114942870546269E+01
   0.16801560816019363E+01      0.55915518208306281E+00      0.15921743790483003E+00      0.99176879681361274E+00
   0.16991568002756783E+01      0.54798470863956650E+00      0.11764147313071595E+00      0.97292889815179118E+00
   0.17211696957662892E+01      0.53672606130481204E+00      0.79040235595483385E-01      0.95433789454599205E+00
   0.17490173450336342E+01      0.52607130644638123E+00      0.38587951365575579E-01      0.93585400707969468E+00
   0.17713794638284870E+01      0.51991819374368908E+00      0.17660576049652779E-01      0.92226060427875189E+00
   0.18560612968187669E+01      0.51991819374368908E+00      0.17660576049652779E-01      0.92226060427875189E+00
   0.18772080667723416E+01      0.52607130644638123E+00      0.38587951365575579E-01      0.93585400707969468E+00
   0.19030769531361094E+01      0.53672606130481204E+00      0.79040235595483385E-01      0.95433789454599205E+00
   0.19230928041834106E+01      0.54798470863956650E+00      0.11764147313071595E+00      0.97292889815179118E+00
   0.19400348195669792E+01      0.55915518208306281E+00      0.15921743790483003E+00      0.99176879681361274E+00
   0.19551504552829233E+01      0.57118247247914267E+00      0.20538949665039660E+00      0.10114942870546269E+01
   0.19687902553530388E+01      0.58381590090197522E+00      0.27001650799463534E+00      0.10324566662215087E+01
   0.19815051969911675E+01      0.59827563863901001E+00      0.31558939203749165E+00      0.10546268112777406E+01
   0.19934716115189863E+01      0.61224898630670177E+00      0.35917928052926162E+00      0.10781404885703152E+01
   0.20048027599166853E+01      0.62766889058079078E+00      0.43541632666935698E+00      0.11030905633879249E+01
   0.20156034405681234E+01      0.64428457791343896E+00      0.48633885639414154E+00      0.11296810114350400E+01
   0.20259927799436634E+01      0.66133985501885784E+00      0.55245242322302157E+00      0.11579875179816754E+01
   0.20360324782567041E+01      0.68029935283391896E+00      0.64632858022727391E+00      0.11884983651414101E+01
   0.20457752439809185E+01      0.70097546285860424E+00      0.71698372841580760E+00      0.12214931314644595E+01
   0.20552656353127934E+01      0.72279736751382484E+00      0.80360865248102431E+00      0.12571897431331189E+01
   0.20645363129294747E+01      0.74682219373917180E+00      0.88838519013215711E+00      0.12953693255625214E+01
   0.20736175671047010E+01      0.77211448445633057E+00      0.97001621015823125E+00      0.13365140710670778E+01
   0.20825266725601628E+01      0.79959010834459554E+00      0.10678749890688011E+01      0.13804395057764278E+01
   0.20912817555718490E+01      0.82900734009078114E+00      0.11540260880171318E+01      0.14273461196799053E+01
   0.20999099827724828E+01      0.86100094366754543E+00      0.13300471408869898E+01      0.14783121807165049E+01
   0.21084282314947091E+01      0.89818004779534422E+00      0.14382573537754304E+01      0.15384046881632303E+01
   0.21168541996066175E+01      0.93577399419841345E+00      0.14615270317164497E+01      0.15983185312152266E+01
   0.21252034821792516E+01      0.97536362569759627E+00      0.15535033449237496E+01      0.16609291934141597E+01
   0.21334896704950519E+01      0.10178947626154993E+01      0.16592584650386792E+01      0.17280372563666324E+01
   0.21417159233600795E+01      0.10637558441527162E+01      0.17667205688435055E+01      0.17999627602502530E+01
   0.21498825092129978E+01      0.11130632470296971E+01      0.18762994610902648E+01      0.18771932554782205E+01
   0.21580065986272730E+01      0.11663180178480013E+01      0.19938492287309431E+01      0.19602478397146648E+01
   0.21660924329109927E+01      0.12239538932834686E+01      0.21144251346945961E+01      0.20498256065400025E+01
   0.21741440995349928E+01      0.12863774466518478E+01      0.22450651879485837E+01      0.21464666603949856E+01
   0.21821648312535435E+01      0.13543751283669361E+01      0.23846120577364487E+01      0.22511597690905796E+01
   0.21901563123868244E+01      0.14284746816070735E+01      0.25314920878315177E+01      0.23649004659719592E+01
   0.21981194334520366E+01      0.15095316597985227E+01      0.26884812350467056E+01      0.24887737649921973E+01
   0.22060612185884443E+01      0.15984676121222392E+01      0.28591524714967176E+01      0.26243504571385374E+01
   0.22139830207943239E+01      0.16965975310177555E+01      0.30458804616623958E+01      0.27733650066357658E+01
   0.22218882085242693E+01      0.18053793221362135E+01      0.32582929578791169E+01      0.29381671187957421E+01
   0.22297745213579350E+01      0.19269969000520366E+01      0.34930926016412034E+01      0.31218970334513800E+01
   0.22376408969359747E+01      0.20635016354218267E+01      0.37650094780550258E+01      0.33280002681399892E+01
   0.22454926361102094E+01      0.22188748150405067E+01      0.40852287721039584E+01      0.35623445103506377E+01
   0.22533302109588687E+01      0.23973664602742639E+01      0.44646381520399672E+01      0.38319691452746212E+01
   0.22611528042538724E+01      0.26059401969775045E+01      0.49504456055169364E+01      0.41482718056210857E+01
   0.22689592243867889E+01      0.28557148846642177E+01      0.56043168712350599E+01      0.45290594051054187E+01
   0.22767471147609419E+01      0.31645476364367613E+01      0.64784081339411488E+01      0.50049030243590469E+01
   0.22845196721986749E+01      0.35676349059751198E+01      0.81858433546243869E+01      0.56360551146727689E+01
   0.22922743539659334E+01      0.41494429263158814E+01      0.10002287208077973E+02      0.65690951030212474E+01
