 TITLE="solution of GS equation with flow, magnetic postprocessing"
 Variables =" R [m] ","q", "shear", "L_ratio"
 ZONE I=          88,F=Point
   0.11166288927764949E+01      0.66028338870922374E+01      0.13692860231985224E+02      0.84956656671707833E+01
   0.11329548549334774E+01      0.51745128400077043E+01      0.10847685586364660E+02      0.69180134079450291E+01
   0.11489994999341950E+01      0.43408418716935921E+01      0.77712323213262939E+01      0.59692479449396911E+01
   0.11647669652964519E+01      0.37722668922740450E+01      0.64330334642779929E+01      0.53045562866518257E+01
   0.11802911486162868E+01      0.33492852063847107E+01      0.54582240752641447E+01      0.47995032810281053E+01
   0.11955384885369922E+01      0.30187808869296076E+01      0.47702139929443037E+01      0.43960876818537047E+01
   0.12105554211178762E+01      0.27505326367609100E+01      0.42626827397580209E+01      0.40621230878866577E+01
   0.12253285401384268E+01      0.25259814799672573E+01      0.38732591561605609E+01      0.37780810871844150E+01
   0.12398858689606740E+01      0.23342276433823370E+01      0.35567320097972392E+01      0.35316206946855995E+01
   0.12542148285743830E+01      0.21682372023020888E+01      0.32565545118164252E+01      0.33151216705280735E+01
   0.12683515349425598E+01      0.20246961434283408E+01      0.29948049866493087E+01      0.31258940350655680E+01
   0.12822726395890807E+01      0.18971649218544984E+01      0.28078737319792109E+01      0.29555170162552251E+01
   0.12960178429315865E+01      0.17823380475038608E+01      0.26475466727932386E+01      0.28000570051264217E+01
   0.13095646069856897E+01      0.16780436593116530E+01      0.25114394050736175E+01      0.26569022582358635E+01
   0.13229308127058030E+01      0.15825446127531742E+01      0.23881734944589930E+01      0.25243512754644137E+01
   0.13361324464700848E+01      0.14948711137742878E+01      0.22737065380036525E+01      0.24008449587400951E+01
   0.13491471697124928E+01      0.14139258290345602E+01      0.21698928523455461E+01      0.22853780287839269E+01
   0.13620039281909060E+01      0.13389559775669064E+01      0.20712588694007872E+01      0.21772829849124404E+01
   0.13747126754138863E+01      0.12694258386125103E+01      0.19670344300223765E+01      0.20762003118977552E+01
   0.13872692250952181E+01      0.12053243308019346E+01      0.18547629374213672E+01      0.19819766254434352E+01
   0.13996919090594979E+01      0.11464433034246306E+01      0.17201448024921084E+01      0.18947190902525783E+01
   0.14120097279046193E+01      0.10932847302836217E+01      0.15901972307701813E+01      0.18149957781905459E+01
   0.14242457167208682E+01      0.10442221239636298E+01      0.14889826269440543E+01      0.17414930919609777E+01
   0.14364121955234554E+01      0.99878033043978620E+00      0.13948510207244897E+01      0.16725767663254447E+01
   0.14485307138897523E+01      0.95629425341539143E+00      0.13136110712426052E+01      0.16078080542035795E+01
   0.14606214787957963E+01      0.91641474986202220E+00      0.12283204064653230E+01      0.15467571510539606E+01
   0.14727027571295794E+01      0.87925328926615998E+00      0.11444711505282901E+01      0.14891248220457207E+01
   0.14847965146039723E+01      0.84428944654921212E+00      0.10682707299948908E+01      0.14347973923227473E+01
   0.14969307030719639E+01      0.81142288454825728E+00      0.99046870319154401E+00      0.13835138321913223E+01
   0.15091298241693158E+01      0.78053165431135529E+00      0.91447371511289044E+00      0.13348814469850061E+01
   0.15214223512326694E+01      0.75143833536819815E+00      0.84133834868991042E+00      0.12887946924736049E+01
   0.15338451701852991E+01      0.72397214209307037E+00      0.77038653145386715E+00      0.12451540698380179E+01
   0.15464614979445261E+01      0.69800188156640119E+00      0.70151738426162769E+00      0.12038256658971773E+01
   0.15592985459435298E+01      0.67342202800685980E+00      0.63003617395842193E+00      0.11645088564762396E+01
   0.15724112862943391E+01      0.65033454000364244E+00      0.55561463872652650E+00      0.11272517336492667E+01
   0.15859494882654142E+01      0.62858755405700184E+00      0.49356670223637883E+00      0.10918664574002104E+01
   0.15999395492164759E+01      0.60760205697763137E+00      0.42894293368168857E+00      0.10581127609552852E+01
   0.16145909698567662E+01      0.58808583132299408E+00      0.36185882500018063E+00      0.10260820291584376E+01
   0.16300570930202827E+01      0.56927836684099120E+00      0.29890890394027858E+00      0.99554674333008619E+00
   0.16467600866137366E+01      0.55167613361828316E+00      0.23715278764600961E+00      0.96642671872638097E+00
   0.16651681641790714E+01      0.53453129646556374E+00      0.17556336819021923E+00      0.93841077726467303E+00
   0.16863858556679616E+01      0.51880766797038735E+00      0.11175304280626365E+00      0.91166501052525240E+00
   0.17132323111613432E+01      0.50358076240231475E+00      0.60754312498040079E-01      0.88483646862287435E+00
   0.17345717002909424E+01      0.49360371122623042E+00      0.33001211638050663E-01      0.86671402453222457E+00
   0.18156066036594385E+01      0.49360371122623042E+00      0.33001211638050663E-01      0.86671402453222457E+00
   0.18361663804186141E+01      0.50358076240231475E+00      0.60754312498040079E-01      0.88483646862287435E+00
   0.18614964195369599E+01      0.51880766797038735E+00      0.11175304280626365E+00      0.91166501052525240E+00
   0.18812447729151576E+01      0.53453129646556374E+00      0.17556336819021923E+00      0.93841077726467303E+00
   0.18981609429335053E+01      0.55167613361828316E+00      0.23715278764600961E+00      0.96642671872638097E+00
   0.19132362931961575E+01      0.56927836684099120E+00      0.29890890394027858E+00      0.99554674333008619E+00
   0.19271188547650222E+01      0.58808583132299408E+00      0.36185882500018063E+00      0.10260820291584376E+01
   0.19400382725214620E+01      0.60760205697763137E+00      0.42894293368168857E+00      0.10581127609552852E+01
   0.19522980295403023E+01      0.62858755405700184E+00      0.49356670223637883E+00      0.10918664574002104E+01
   0.19640162188883814E+01      0.65033454000364244E+00      0.55561463872652650E+00      0.11272517336492667E+01
   0.19752780628887627E+01      0.67342202800685980E+00      0.63003617395842193E+00      0.11645088564762396E+01
   0.19861552321000444E+01      0.69800188156640119E+00      0.70151738426162769E+00      0.12038256658971773E+01
   0.19967336958231348E+01      0.72397214209307037E+00      0.77038653145386715E+00      0.12451540698380179E+01
   0.20070615072745208E+01      0.75143833536819815E+00      0.84133834868991042E+00      0.12887946924736049E+01
   0.20171765814808924E+01      0.78053165431135529E+00      0.91447371511289044E+00      0.13348814469850061E+01
   0.20271112512302776E+01      0.81142288454825728E+00      0.99046870319154401E+00      0.13835138321913223E+01
   0.20368924792463221E+01      0.84428944654921212E+00      0.10682707299948908E+01      0.14347973923227473E+01
   0.20465436267961277E+01      0.87925328926615998E+00      0.11444711505282901E+01      0.14891248220457207E+01
   0.20560832545301801E+01      0.91641474986202220E+00      0.12283204064653230E+01      0.15467571510539606E+01
   0.20655321624447818E+01      0.95629425341539143E+00      0.13136110712426052E+01      0.16078080542035795E+01
   0.20749029523157136E+01      0.99878033043978620E+00      0.13948510207244897E+01      0.16725767663254447E+01
   0.20842091948294761E+01      0.10442221239636298E+01      0.14889826269440543E+01      0.17414930919609777E+01
   0.20934627950300446E+01      0.10932847302836217E+01      0.15901972307701813E+01      0.18149957781905459E+01
   0.21026737805253704E+01      0.11464433034246306E+01      0.17201448024921084E+01      0.18947190902525783E+01
   0.21118573699260321E+01      0.12053243308019346E+01      0.18547629374213672E+01      0.19819766254434352E+01
   0.21210240654629424E+01      0.12694258386125103E+01      0.19670344300223765E+01      0.20762003118977552E+01
   0.21301823184080764E+01      0.13389559775669064E+01      0.20712588694007872E+01      0.21772829849124404E+01
   0.21393394892660025E+01      0.14139258290345602E+01      0.21698928523455461E+01      0.22853780287839269E+01
   0.21484991181985253E+01      0.14948711137742878E+01      0.22737065380036525E+01      0.24008449587400951E+01
   0.21576678211364437E+01      0.15825446127531742E+01      0.23881734944589930E+01      0.25243512754644137E+01
   0.21668491427317460E+01      0.16780436593116530E+01      0.25114394050736175E+01      0.26569022582358635E+01
   0.21760471830205472E+01      0.17823380475038608E+01      0.26475466727932386E+01      0.28000570051264217E+01
   0.21852654687944786E+01      0.18971649218544984E+01      0.28078737319792109E+01      0.29555170162552251E+01
   0.21945049851901994E+01      0.20246961434283408E+01      0.29948049866493087E+01      0.31258940350655680E+01
   0.22037715755519520E+01      0.21682372023020888E+01      0.32565545118164252E+01      0.33151216705280735E+01
   0.22130753564326748E+01      0.23342276433823370E+01      0.35567320097972392E+01      0.35316206946855995E+01
   0.22224365868185481E+01      0.25259814799672573E+01      0.38732591561605609E+01      0.37780810871844150E+01
   0.22318612196148000E+01      0.27505326367609100E+01      0.42626827397580209E+01      0.40621230878866577E+01
   0.22413510075381855E+01      0.30187808869296076E+01      0.47702139929443037E+01      0.43960876818537047E+01
   0.22509144663465261E+01      0.33492852063847107E+01      0.54582240752641447E+01      0.47995032810281053E+01
   0.22605548486646843E+01      0.37722668922740450E+01      0.64330334642779929E+01      0.53045562866518257E+01
   0.22702744020667436E+01      0.43408418716935921E+01      0.77712323213262939E+01      0.59692479449396911E+01
   0.22800798559173168E+01      0.51745128400077043E+01      0.10847685586364660E+02      0.69180134079450291E+01
   0.22899745942477856E+01      0.66028338870922374E+01      0.13692860231985224E+02      0.84956656671707833E+01
