 TITLE="solution of GS equation with flow, magnetic postprocessing"
 Variables =" R [m] ","q", "shear", "L_ratio"
 ZONE I=          88,F=Point
   0.11179486739339879E+01      0.96073077267069422E+01      0.12179088235806818E+02      0.12832052649270441E+02
   0.11354680410588234E+01      0.74714960612849852E+01      0.97972352901461086E+01      0.10371523426134853E+02
   0.11526271268167954E+01      0.62059833405251581E+01      0.71667252646548718E+01      0.88570751135188210E+01
   0.11694374120986408E+01      0.53356968179508835E+01      0.60101784725056833E+01      0.77814158906741362E+01
   0.11858675015020634E+01      0.46855941830310170E+01      0.51745143975455372E+01      0.69556937846374396E+01
   0.12019437936192205E+01      0.41746454897612741E+01      0.45858961189474199E+01      0.62914812662814734E+01
   0.12176704149484059E+01      0.37600070944354034E+01      0.41312416466540860E+01      0.57411810642536967E+01
   0.12330332174379866E+01      0.34137906163056075E+01      0.37794883320157133E+01      0.52730003361994093E+01
   0.12480761616911866E+01      0.31195023944457319E+01      0.34886326784820283E+01      0.48677573802160623E+01
   0.12627506076080934E+01      0.28654380736120433E+01      0.32475275336629470E+01      0.45123097194914381E+01
   0.12771266637548158E+01      0.26436897713742251E+01      0.30362296870932663E+01      0.41975057061981058E+01
   0.12911668304765882E+01      0.24484358925577863E+01      0.28495636275853400E+01      0.39164383980524344E+01
   0.13049217297551723E+01      0.22751046866122899E+01      0.26855384493851662E+01      0.36638263441259058E+01
   0.13183900775670891E+01      0.21202053223583950E+01      0.25359413862659288E+01      0.34355131985023157E+01
   0.13315737685823397E+01      0.19810282739484504E+01      0.23985141293997296E+01      0.32280411619046698E+01
   0.13445134335198314E+01      0.18553058765049504E+01      0.22735959794065272E+01      0.30387338503423154E+01
   0.13572144946865421E+01      0.17411257437234371E+01      0.21610028746816776E+01      0.28653720558920814E+01
   0.13696729567708035E+01      0.16369045539960430E+01      0.20483814947147447E+01      0.27060529381580509E+01
   0.13819309827397310E+01      0.15420400039576825E+01      0.19402829842413905E+01      0.25593735709578080E+01
   0.13940004654632518E+01      0.14549840293218974E+01      0.18420926735914491E+01      0.24239123094867643E+01
   0.14058955969428482E+01      0.13750402407402780E+01      0.17473181691937880E+01      0.22986623411987432E+01
   0.14176175857395374E+01      0.13012772000106281E+01      0.16554178565526099E+01      0.21825230145246159E+01
   0.14292024333866860E+01      0.12332805684634085E+01      0.15646970864710181E+01      0.20745890622087679E+01
   0.14406675544568941E+01      0.11703378654148242E+01      0.14801607640492875E+01      0.19742152653872131E+01
   0.14520303049006815E+01      0.11119382545963419E+01      0.13939829576465597E+01      0.18806832685718207E+01
   0.14633095728350523E+01      0.10578730709959592E+01      0.13092853303438239E+01      0.17934613664983559E+01
   0.14745268158401084E+01      0.10075308236562173E+01      0.12310309477468897E+01      0.17120493746654879E+01
   0.14856976355818081E+01      0.96057994586532724E+00      0.11513834474748152E+01      0.16358111500254255E+01
   0.14968580167445364E+01      0.91684537342165040E+00      0.10710285436037492E+01      0.15643704107339540E+01
   0.15080322429290860E+01      0.87604962828431676E+00      0.99376455592755719E+00      0.14975035676589394E+01
   0.15192501399792679E+01      0.83787959971681758E+00      0.91863721369731743E+00      0.14348118167455153E+01
   0.15305462968368133E+01      0.80211404645346218E+00      0.84210622035652527E+00      0.13758463640321985E+01
   0.15419569119280612E+01      0.76868103896703288E+00      0.76700378115816081E+00      0.13203973086312799E+01
   0.15535430136051764E+01      0.73725055783722881E+00      0.69160232610303207E+00      0.12682479799899959E+01
   0.15653723174289629E+01      0.70785060497101648E+00      0.62225989742662147E+00      0.12191624432486921E+01
   0.15775027898636207E+01      0.67985214351209711E+00      0.55067866881334193E+00      0.11729214618630159E+01
   0.15900206125304814E+01      0.65389083182619223E+00      0.47482269335708283E+00      0.11292620680704104E+01
   0.16030830232910482E+01      0.62942727262302067E+00      0.40487047939977422E+00      0.10879720562786661E+01
   0.16169152852695103E+01      0.60629348563172147E+00      0.33690829807662442E+00      0.10489306436941550E+01
   0.16316899863203109E+01      0.58424950600557590E+00      0.26733910367730263E+00      0.10118238659361452E+01
   0.16480960172338566E+01      0.56378219876988978E+00      0.19687417235921739E+00      0.97657485620386975E+00
   0.16669654637142617E+01      0.54418490585245294E+00      0.13187484717644529E+00      0.94261036629480888E+00
   0.16907127971433360E+01      0.52524830229614605E+00      0.69464954321117101E-01      0.90749746698019351E+00
   0.17096067057995157E+01      0.51355154063929009E+00      0.35646096100475672E-01      0.88071560506434743E+00
   0.17826148496201206E+01      0.51355154063929009E+00      0.35646096100475672E-01      0.88071560506434743E+00
   0.18014322538544103E+01      0.52524830229614605E+00      0.69464954321117101E-01      0.90749746698019351E+00
   0.18249103010344241E+01      0.54418490585245294E+00      0.13187484717644529E+00      0.94261036629480888E+00
   0.18433074245642700E+01      0.56378219876988978E+00      0.19687417235921739E+00      0.97657485620386975E+00
   0.18592268421081557E+01      0.58424950600557590E+00      0.26733910367730263E+00      0.10118238659361452E+01
   0.18735487425457384E+01      0.60629348563172147E+00      0.33690829807662442E+00      0.10489306436941550E+01
   0.18868713770864769E+01      0.62942727262302067E+00      0.40487047939977422E+00      0.10879720562786661E+01
   0.18993464273184526E+01      0.65389083182619223E+00      0.47482269335708283E+00      0.11292620680704104E+01
   0.19112781248989665E+01      0.67985214351209711E+00      0.55067866881334193E+00      0.11729214618630159E+01
   0.19227780204471370E+01      0.70785060497101648E+00      0.62225989742662147E+00      0.12191624432486921E+01
   0.19339367325435357E+01      0.73725055783722881E+00      0.69160232610303207E+00      0.12682479799899959E+01
   0.19448185657898183E+01      0.76868103896703288E+00      0.76700378115816081E+00      0.13203973086312799E+01
   0.19554773936290013E+01      0.80211404645346218E+00      0.84210622035652527E+00      0.13758463640321985E+01
   0.19659602816077879E+01      0.83787959971681758E+00      0.91863721369731743E+00      0.14348118167455153E+01
   0.19763122698437767E+01      0.87604962828431676E+00      0.99376455592755719E+00      0.14975035676589394E+01
   0.19865615745244030E+01      0.91684537342165040E+00      0.10710285436037492E+01      0.15643704107339540E+01
   0.19967414316074488E+01      0.96057994586532724E+00      0.11513834474748152E+01      0.16358111500254255E+01
   0.20068623918852682E+01      0.10075308236562173E+01      0.12310309477468897E+01      0.17120493746654879E+01
   0.20169561512160019E+01      0.10578730709959592E+01      0.13092853303438239E+01      0.17934613664983559E+01
   0.20270323686995524E+01      0.11119382545963419E+01      0.13939829576465597E+01      0.18806832685718207E+01
   0.20371083267731160E+01      0.11703378654148242E+01      0.14801607640492875E+01      0.19742152653872131E+01
   0.20471976302929891E+01      0.12332805684634085E+01      0.15646970864710181E+01      0.20745890622087679E+01
   0.20573123927410286E+01      0.13012772000106281E+01      0.16554178565526099E+01      0.21825230145246159E+01
   0.20674635210679422E+01      0.13750402407402780E+01      0.17473181691937880E+01      0.22986623411987432E+01
   0.20776595625333178E+01      0.14549840293218974E+01      0.18420926735914491E+01      0.24239123094867643E+01
   0.20879129197027395E+01      0.15420400039576825E+01      0.19402829842413905E+01      0.25593735709578080E+01
   0.20982279613884312E+01      0.16369045539960430E+01      0.20483814947147447E+01      0.27060529381580509E+01
   0.21086143705127944E+01      0.17411257437234371E+01      0.21610028746816776E+01      0.28653720558920814E+01
   0.21190736828516146E+01      0.18553058765049504E+01      0.22735959794065272E+01      0.30387338503423154E+01
   0.21296162630444133E+01      0.19810282739484504E+01      0.23985141293997296E+01      0.32280411619046698E+01
   0.21402452458147274E+01      0.21202053223583950E+01      0.25359413862659288E+01      0.34355131985023157E+01
   0.21509648749345578E+01      0.22751046866122899E+01      0.26855384493851662E+01      0.36638263441259058E+01
   0.21617833520018075E+01      0.24484358925577863E+01      0.28495636275853400E+01      0.39164383980524344E+01
   0.21727038059553108E+01      0.26436897713742251E+01      0.30362296870932663E+01      0.41975057061981058E+01
   0.21837210782536873E+01      0.28654380736120433E+01      0.32475275336629470E+01      0.45123097194914381E+01
   0.21948468689071632E+01      0.31195023944457319E+01      0.34886326784820283E+01      0.48677573802160623E+01
   0.22060772361767911E+01      0.34137906163056075E+01      0.37794883320157133E+01      0.52730003361994093E+01
   0.22174094990016404E+01      0.37600070944354034E+01      0.41312416466540860E+01      0.57411810642536967E+01
   0.22288480221297453E+01      0.41746454897612741E+01      0.45858961189474199E+01      0.62914812662814734E+01
   0.22403933778563347E+01      0.46855941830310170E+01      0.51745143975455372E+01      0.69556937846374396E+01
   0.22520619428660424E+01      0.53356968179508835E+01      0.60101784725056833E+01      0.77814158906741362E+01
   0.22638379970903664E+01      0.62059833405251581E+01      0.71667252646548718E+01      0.88570751135188210E+01
   0.22757254683048767E+01      0.74714960612849852E+01      0.97972352901461086E+01      0.10371523426134853E+02
   0.22877166116057421E+01      0.96073077267069422E+01      0.12179088235806818E+02      0.12832052649270441E+02
